arm,phase,subject,shots_per_class,trials,macro_f1,accuracy,log_loss,brier,ece,per_class_f1_json
F0,validation,ALL,0,64,0.9687347262952102,0.96875,0.14644698173357729,0.07537603888631401,0.07597458729930633,"{""15"": 0.967741935483871, ""16"": 0.9696969696969697, ""17"": 1.0, ""4"": 0.9375}"
F0,validation,1,0,8,1.0,1.0,0.07040755642843037,0.020807727610036617,0.06398869987059155,"{""15"": 1.0, ""16"": 1.0, ""17"": 1.0, ""4"": 1.0}"
F0,validation,2,0,8,1.0,1.0,0.07852583312864614,0.034206660512916494,0.06732626712656097,"{""15"": 1.0, ""16"": 1.0, ""17"": 1.0, ""4"": 1.0}"
F0,validation,3,0,8,1.0,1.0,0.03057963360947505,0.005507246696982229,0.02855145349287337,"{""15"": 1.0, ""16"": 1.0, ""17"": 1.0, ""4"": 1.0}"
F0,validation,4,0,8,1.0,1.0,0.04030491580674713,0.004218372193557973,0.03891046013854427,"{""15"": 1.0, ""16"": 1.0, ""17"": 1.0, ""4"": 1.0}"
F0,validation,5,0,8,0.7416666666666667,0.75,0.46465417097094175,0.30456241043991483,0.07416750932000152,"{""15"": 0.6666666666666666, ""16"": 0.8, ""17"": 1.0, ""4"": 0.5}"
F0,validation,6,0,8,1.0,1.0,0.1366449574013772,0.06696045940128248,0.10721401581812862,"{""15"": 1.0, ""16"": 1.0, ""17"": 1.0, ""4"": 1.0}"
F0,validation,7,0,8,1.0,1.0,0.07520125674335865,0.02826344440612004,0.06537017159253879,"{""15"": 1.0, ""16"": 1.0, ""17"": 1.0, ""4"": 1.0}"
F0,validation,8,0,8,1.0,1.0,0.2752575297796421,0.13848198982970147,0.2200061003486089,"{""15"": 1.0, ""16"": 1.0, ""17"": 1.0, ""4"": 1.0}"
F0,validation,ALL,1,64,0.9843597262952102,0.984375,0.088132012818084,0.031316423565977275,0.07570278846647108,"{""15"": 0.967741935483871, ""16"": 1.0, ""17"": 1.0, ""4"": 0.9696969696969697}"
F0,validation,1,1,8,1.0,1.0,0.03374619193964245,0.005238798654555458,0.032274611801609815,"{""15"": 1.0, ""16"": 1.0, ""17"": 1.0, ""4"": 1.0}"
F0,validation,2,1,8,1.0,1.0,0.03617826229407117,0.008604881701228011,0.033738219480118695,"{""15"": 1.0, ""16"": 1.0, ""17"": 1.0, ""4"": 1.0}"
F0,validation,3,1,8,1.0,1.0,0.014753513206895823,0.0013769194486477846,0.014276192264084164,"{""15"": 1.0, ""16"": 1.0, ""17"": 1.0, ""4"": 1.0}"
F0,validation,4,1,8,1.0,1.0,0.10453850650193525,0.029323950138848313,0.09544003066387448,"{""15"": 1.0, ""16"": 1.0, ""17"": 1.0, ""4"": 1.0}"
F0,validation,5,1,8,0.8666666666666667,0.875,0.26754538968691177,0.1384181452324691,0.2040375115468557,"{""15"": 0.6666666666666666, ""16"": 1.0, ""17"": 1.0, ""4"": 0.8}"
F0,validation,6,1,8,1.0,1.0,0.08533211557833033,0.022124341352267055,0.0779214630853091,"{""15"": 1.0, ""16"": 1.0, ""17"": 1.0, ""4"": 1.0}"
F0,validation,7,1,8,1.0,1.0,0.034881322558329896,0.007079064728986543,0.03270647363118838,"{""15"": 1.0, ""16"": 1.0, ""17"": 1.0, ""4"": 1.0}"
F0,validation,8,1,8,1.0,1.0,0.12808080077855535,0.03836528727081593,0.11522780525872847,"{""15"": 1.0, ""16"": 1.0, ""17"": 1.0, ""4"": 1.0}"
F0,validation,ALL,2,64,0.9843597262952102,0.984375,0.08526640690136239,0.03644341566908484,0.044563419354441455,"{""15"": 0.967741935483871, ""16"": 1.0, ""17"": 1.0, ""4"": 0.9696969696969697}"
F0,validation,1,2,8,1.0,1.0,0.03347293554709504,0.00520603403146474,0.03201062781590146,"{""15"": 1.0, ""16"": 1.0, ""17"": 1.0, ""4"": 1.0}"
F0,validation,2,2,8,1.0,1.0,0.03618121493144303,0.008606599100461429,0.033740645855314236,"{""15"": 1.0, ""16"": 1.0, ""17"": 1.0, ""4"": 1.0}"
F0,validation,3,2,8,1.0,1.0,0.01475355293641559,0.0013769168769360652,0.014276232945749978,"{""15"": 1.0, ""16"": 1.0, ""17"": 1.0, ""4"": 1.0}"
F0,validation,4,2,8,1.0,1.0,0.020006533915523792,0.0010642469487919608,0.019663319008698332,"{""15"": 1.0, ""16"": 1.0, ""17"": 1.0, ""4"": 1.0}"
F0,validation,5,2,8,0.8666666666666667,0.875,0.33546406112355465,0.20276205841605924,0.04775343375653593,"{""15"": 0.6666666666666666, ""16"": 1.0, ""17"": 1.0, ""4"": 0.8}"
F0,validation,6,2,8,1.0,1.0,0.061107210425259934,0.01692553955453509,0.05515246839257246,"{""15"": 1.0, ""16"": 1.0, ""17"": 1.0, ""4"": 1.0}"
F0,validation,7,2,8,1.0,1.0,0.03487979396237361,0.007077962362629271,0.03270528923182475,"{""15"": 1.0, ""16"": 1.0, ""17"": 1.0, ""4"": 1.0}"
F0,validation,8,2,8,1.0,1.0,0.14626595236923343,0.04852796806180097,0.1301756904481275,"{""15"": 1.0, ""16"": 1.0, ""17"": 1.0, ""4"": 1.0}"
F0,validation,ALL,5,64,0.9687347262952102,0.96875,0.10371428878540842,0.052571215529014115,0.050035290272545496,"{""15"": 0.967741935483871, ""16"": 0.9696969696969697, ""17"": 1.0, ""4"": 0.9375}"
F0,validation,1,5,8,1.0,1.0,0.03348855650602884,0.005212893725575837,0.032024254535426885,"{""15"": 1.0, ""16"": 1.0, ""17"": 1.0, ""4"": 1.0}"
F0,validation,2,5,8,1.0,1.0,0.03613286361366955,0.008578371633637222,0.033700912376643855,"{""15"": 1.0, ""16"": 1.0, ""17"": 1.0, ""4"": 1.0}"
F0,validation,3,5,8,1.0,1.0,0.014753146683907327,0.0013768398570823698,0.01427585612208071,"{""15"": 1.0, ""16"": 1.0, ""17"": 1.0, ""4"": 1.0}"
F0,validation,4,5,8,1.0,1.0,0.019795173751908257,0.0010546386918161047,0.019456133235643547,"{""15"": 1.0, ""16"": 1.0, ""17"": 1.0, ""4"": 1.0}"
F0,validation,5,5,8,0.7416666666666667,0.75,0.489403582452337,0.33514133724394696,0.23287889046430882,"{""15"": 0.6666666666666666, ""16"": 0.8, ""17"": 1.0, ""4"": 0.5}"
F0,validation,6,5,8,1.0,1.0,0.06121910098219737,0.016954081686402337,0.05525407756511905,"{""15"": 1.0, ""16"": 1.0, ""17"": 1.0, ""4"": 1.0}"
F0,validation,7,5,8,1.0,1.0,0.03487589653939322,0.007072666495987631,0.03270308656086962,"{""15"": 1.0, ""16"": 1.0, ""17"": 1.0, ""4"": 1.0}"
F0,validation,8,5,8,1.0,1.0,0.14004598975382582,0.04517889489766459,0.12503533238531234,"{""15"": 1.0, ""16"": 1.0, ""17"": 1.0, ""4"": 1.0}"
F0,final,ALL,0,64,0.920995670995671,0.921875,0.23491726731861012,0.11828349971113725,0.08078037404063183,"{""15"": 0.9142857142857143, ""16"": 0.9333333333333333, ""17"": 0.9696969696969697, ""4"": 0.8666666666666667}"
F0,final,1,0,8,1.0,1.0,0.19329879438707,0.08610968568298451,0.14596968382311426,"{""15"": 1.0, ""16"": 1.0, ""17"": 1.0, ""4"": 1.0}"
F0,final,2,0,8,0.6666666666666666,0.75,0.6079196830735984,0.33166707400277506,0.17882801594222178,"{""15"": 0.6666666666666666, ""16"": 1.0, ""17"": 1.0, ""4"": 0.0}"
F0,final,3,0,8,1.0,1.0,0.09236531027598986,0.030514678133256663,0.0827618269428482,"{""15"": 1.0, ""16"": 1.0, ""17"": 1.0, ""4"": 1.0}"
F0,final,4,0,8,1.0,1.0,0.08995681860020505,0.016667957434702493,0.08408336001504418,"{""15"": 1.0, ""16"": 1.0, ""17"": 1.0, ""4"": 1.0}"
F0,final,5,0,8,0.8666666666666667,0.875,0.2021235996617582,0.11670894296442726,0.12823379575201574,"{""15"": 1.0, ""16"": 1.0, ""17"": 0.8, ""4"": 0.6666666666666666}"
F0,final,6,0,8,0.8666666666666667,0.875,0.19328098352350578,0.10004449392592434,0.11441335761860283,"{""15"": 1.0, ""16"": 0.6666666666666666, ""17"": 1.0, ""4"": 0.8}"
F0,final,7,0,8,1.0,1.0,0.1764584024888487,0.07235104912061349,0.14568003400770912,"{""15"": 1.0, ""16"": 1.0, ""17"": 1.0, ""4"": 1.0}"
F0,final,8,0,8,0.8666666666666667,0.875,0.3239345465379053,0.19220411642441415,0.13331776036491594,"{""15"": 0.8, ""16"": 0.6666666666666666, ""17"": 1.0, ""4"": 1.0}"
F0,final,ALL,1,64,0.9686274509803922,0.96875,0.15564112082110398,0.07478374674763284,0.08377782598627219,"{""15"": 0.9411764705882353, ""16"": 1.0, ""17"": 1.0, ""4"": 0.9333333333333333}"
F0,final,1,1,8,1.0,1.0,0.08376779567463585,0.022750058262165054,0.07434629128859682,"{""15"": 1.0, ""16"": 1.0, ""17"": 1.0, ""4"": 1.0}"
F0,final,2,1,8,0.8666666666666667,0.875,0.3095442917078321,0.19623943835740254,0.2052079546458382,"{""15"": 0.8, ""16"": 1.0, ""17"": 1.0, ""4"": 0.6666666666666666}"
F0,final,3,1,8,1.0,1.0,0.043574431085002474,0.007630680426967805,0.04138737537852674,"{""15"": 1.0, ""16"": 1.0, ""17"": 1.0, ""4"": 1.0}"
F0,final,4,1,8,1.0,1.0,0.043435577507867994,0.004167047855366897,0.04204197080295513,"{""15"": 1.0, ""16"": 1.0, ""17"": 1.0, ""4"": 1.0}"
F0,final,5,1,8,0.8666666666666667,0.875,0.3122375514743867,0.16856104062917462,0.2155698611059483,"{""15"": 0.8, ""16"": 1.0, ""17"": 1.0, ""4"": 0.6666666666666666}"
F0,final,6,1,8,1.0,1.0,0.18950069679323417,0.10282288070025698,0.14903469141918602,"{""15"": 1.0, ""16"": 1.0, ""17"": 1.0, ""4"": 1.0}"
F0,final,7,1,8,1.0,1.0,0.09814703351089996,0.030278270022879864,0.0867827995167066,"{""15"": 1.0, ""16"": 1.0, ""17"": 1.0, ""4"": 1.0}"
F0,final,8,1,8,1.0,1.0,0.16492158881497265,0.065820557726849,0.14420749450712417,"{""15"": 1.0, ""16"": 1.0, ""17"": 1.0, ""4"": 1.0}"
F0,final,ALL,2,64,0.9527093596059113,0.953125,0.15888106173581656,0.07811490364964953,0.07774005678449138,"{""15"": 0.9142857142857143, ""16"": 1.0, ""17"": 1.0, ""4"": 0.896551724137931}"
F0,final,1,2,8,1.0,1.0,0.08611145026242585,0.024289491706603352,0.0759560341221463,"{""15"": 1.0, ""16"": 1.0, ""17"": 1.0, ""4"": 1.0}"
F0,final,2,2,8,0.8666666666666667,0.875,0.3175955877825326,0.2028191270257893,0.20958882187968114,"{""15"": 0.8, ""16"": 1.0, ""17"": 1.0, ""4"": 0.6666666666666666}"
F0,final,3,2,8,1.0,1.0,0.04372541719926229,0.007693137919172007,0.041520042872875806,"{""15"": 1.0, ""16"": 1.0, ""17"": 1.0, ""4"": 1.0}"
F0,final,4,2,8,1.0,1.0,0.04343553174527051,0.004167045380870283,0.04204192751484048,"{""15"": 1.0, ""16"": 1.0, ""17"": 1.0, ""4"": 1.0}"
F0,final,5,2,8,0.6666666666666666,0.75,0.3493100249459438,0.19341153933829303,0.18440574034426965,"{""15"": 0.6666666666666666, ""16"": 1.0, ""17"": 1.0, ""4"": 0.0}"
F0,final,6,2,8,1.0,1.0,0.10494368884206869,0.04582057625348862,0.08568129196468115,"{""15"": 1.0, ""16"": 1.0, ""17"": 1.0, ""4"": 1.0}"
F0,final,7,2,8,1.0,1.0,0.1299098149279294,0.05722699636037358,0.10634496391902416,"{""15"": 1.0, ""16"": 1.0, ""17"": 1.0, ""4"": 1.0}"
F0,final,8,2,8,1.0,1.0,0.19601697818109945,0.08949131521260607,0.16681642854406886,"{""15"": 1.0, ""16"": 1.0, ""17"": 1.0, ""4"": 1.0}"
F0,final,ALL,5,64,0.9843597262952102,0.984375,0.13069947667399917,0.060832178967405684,0.0837347045304428,"{""15"": 0.9696969696969697, ""16"": 1.0, ""17"": 1.0, ""4"": 0.967741935483871}"
F0,final,1,5,8,1.0,1.0,0.08403989542862858,0.02282446921830413,0.07459634434585219,"{""15"": 1.0, ""16"": 1.0, ""17"": 1.0, ""4"": 1.0}"
F0,final,2,5,8,0.8666666666666667,0.875,0.29227267279860153,0.1851506104421323,0.18857331795963694,"{""15"": 0.8, ""16"": 1.0, ""17"": 1.0, ""4"": 0.6666666666666666}"
F0,final,3,5,8,1.0,1.0,0.04358479480228411,0.007635588227909757,0.04139628448222529,"{""15"": 1.0, ""16"": 1.0, ""17"": 1.0, ""4"": 1.0}"
F0,final,4,5,8,1.0,1.0,0.04343761713843997,0.0041672762981847,0.042043919502858795,"{""15"": 1.0, ""16"": 1.0, ""17"": 1.0, ""4"": 1.0}"
F0,final,5,5,8,1.0,1.0,0.16573681944981125,0.08196339954649459,0.13179560478984717,"{""15"": 1.0, ""16"": 1.0, ""17"": 1.0, ""4"": 1.0}"
F0,final,6,5,8,1.0,1.0,0.12635152603105002,0.06642105408097189,0.09560101777473419,"{""15"": 1.0, ""16"": 1.0, ""17"": 1.0, ""4"": 1.0}"
F0,final,7,5,8,1.0,1.0,0.09245982487963578,0.026125041889581792,0.08276694909056358,"{""15"": 1.0, ""16"": 1.0, ""17"": 1.0, ""4"": 1.0}"
F0,final,8,5,8,1.0,1.0,0.1977126628635421,0.09236999203566626,0.16697204390979142,"{""15"": 1.0, ""16"": 1.0, ""17"": 1.0, ""4"": 1.0}"
F0+F2a,validation,ALL,0,64,0.9363636363636364,0.9375,0.13901506140488248,0.0837556255734774,0.03214056039457989,"{""15"": 0.9090909090909091, ""16"": 1.0, ""17"": 0.9696969696969697, ""4"": 0.8666666666666667}"
F0+F2a,validation,1,0,8,1.0,1.0,0.014502761405156543,0.0012560033678427017,0.014167930340328927,"{""15"": 1.0, ""16"": 1.0, ""17"": 1.0, ""4"": 1.0}"
F0+F2a,validation,2,0,8,0.8666666666666667,0.875,0.26426056160134426,0.18984370879498777,0.11655975802564476,"{""15"": 0.8, ""16"": 1.0, ""17"": 1.0, ""4"": 0.6666666666666666}"
F0+F2a,validation,3,0,8,1.0,1.0,0.004709263170362777,9.700682436071717e-05,0.00468194778122033,"{""15"": 1.0, ""16"": 1.0, ""17"": 1.0, ""4"": 1.0}"
F0+F2a,validation,4,0,8,1.0,1.0,0.025441890854398817,0.004379284507051999,0.024139574444889803,"{""15"": 1.0, ""16"": 1.0, ""17"": 1.0, ""4"": 1.0}"
F0+F2a,validation,5,0,8,0.8666666666666667,0.875,0.17498634227309967,0.10189712886152763,0.11706839262834902,"{""15"": 0.6666666666666666, ""16"": 1.0, ""17"": 1.0, ""4"": 0.8}"
F0+F2a,validation,6,0,8,0.65,0.75,0.45056531572147923,0.29117633747071425,0.17280164841045817,"{""15"": 0.8, ""16"": 1.0, ""17"": 0.8, ""4"": 0.0}"
F0+F2a,validation,7,0,8,1.0,1.0,0.019143764858186266,0.003254575303897562,0.018206573854481684,"{""15"": 1.0, ""16"": 1.0, ""17"": 1.0, ""4"": 1.0}"
F0+F2a,validation,8,0,8,1.0,1.0,0.15851059135503257,0.07814095945743654,0.13102791022721627,"{""15"": 1.0, ""16"": 1.0, ""17"": 1.0, ""4"": 1.0}"
F0+F2a,validation,ALL,1,64,0.9363636363636364,0.9375,0.17191538937151682,0.10308079991527257,0.05010961936997739,"{""15"": 0.9090909090909091, ""16"": 1.0, ""17"": 0.9696969696969697, ""4"": 0.8666666666666667}"
F0+F2a,validation,1,1,8,1.0,1.0,0.03681178726079527,0.006852959360033791,0.03493056016770932,"{""15"": 1.0, ""16"": 1.0, ""17"": 1.0, ""4"": 1.0}"
F0+F2a,validation,2,1,8,0.8666666666666667,0.875,0.34672353535859113,0.21871722354703246,0.1128846540366315,"{""15"": 0.8, ""16"": 1.0, ""17"": 1.0, ""4"": 0.6666666666666666}"
F0+F2a,validation,3,1,8,1.0,1.0,0.0023477752653039523,2.4251736763910574e-05,0.002340977969043756,"{""15"": 1.0, ""16"": 1.0, ""17"": 1.0, ""4"": 1.0}"
F0+F2a,validation,4,1,8,1.0,1.0,0.24863796118989762,0.14859645957741732,0.19286604839560195,"{""15"": 1.0, ""16"": 1.0, ""17"": 1.0, ""4"": 1.0}"
F0+F2a,validation,5,1,8,0.8666666666666667,0.875,0.17665111742393647,0.11986294493696638,0.10807615776902071,"{""15"": 0.6666666666666666, ""16"": 1.0, ""17"": 1.0, ""4"": 0.8}"
F0+F2a,validation,6,1,8,0.65,0.75,0.4800907216310023,0.3077558212930054,0.18982923165675608,"{""15"": 0.8, ""16"": 1.0, ""17"": 0.8, ""4"": 0.0}"
F0+F2a,validation,7,1,8,1.0,1.0,0.009328433091685328,0.0008136468342731509,0.009103305893862657,"{""15"": 1.0, ""16"": 1.0, ""17"": 1.0, ""4"": 1.0}"
F0+F2a,validation,8,1,8,1.0,1.0,0.07473178375092233,0.02202309203668822,0.0681721771434709,"{""15"": 1.0, ""16"": 1.0, ""17"": 1.0, ""4"": 1.0}"
F0+F2a,validation,ALL,2,64,0.9363636363636364,0.9375,0.13583566280296477,0.08576447918925312,0.04070831584594399,"{""15"": 0.9090909090909091, ""16"": 1.0, ""17"": 0.9696969696969697, ""4"": 0.8666666666666667}"
F0+F2a,validation,1,2,8,1.0,1.0,0.007319656278893114,0.00031622315456911605,0.007237016092869308,"{""15"": 1.0, ""16"": 1.0, ""17"": 1.0, ""4"": 1.0}"
F0+F2a,validation,2,2,8,0.8666666666666667,0.875,0.3453522402852434,0.2183838676069826,0.1127908337041641,"{""15"": 0.8, ""16"": 1.0, ""17"": 1.0, ""4"": 0.6666666666666666}"
F0+F2a,validation,3,2,8,1.0,1.0,0.0023478638295978413,2.4251825618716885e-05,0.0023410664920401336,"{""15"": 1.0, ""16"": 1.0, ""17"": 1.0, ""4"": 1.0}"
F0+F2a,validation,4,2,8,1.0,1.0,0.014009370139134539,0.0012984478155765242,0.013604297848863522,"{""15"": 1.0, ""16"": 1.0, ""17"": 1.0, ""4"": 1.0}"
F0+F2a,validation,5,2,8,0.8666666666666667,0.875,0.22479604336868375,0.15538189161846494,0.11961097273622806,"{""15"": 0.6666666666666666, ""16"": 1.0, ""17"": 1.0, ""4"": 0.8}"
F0+F2a,validation,6,2,8,0.65,0.75,0.40721515214296405,0.286699624642029,0.18236550240951846,"{""15"": 0.8, ""16"": 1.0, ""17"": 0.8, ""4"": 0.0}"
F0+F2a,validation,7,2,8,1.0,1.0,0.009328433626698994,0.0008136465941781298,0.00910330649801705,"{""15"": 1.0, ""16"": 1.0, ""17"": 1.0, ""4"": 1.0}"
F0+F2a,validation,8,2,8,1.0,1.0,0.07631654275250235,0.0231978802566058,0.06936374452151967,"{""15"": 1.0, ""16"": 1.0, ""17"": 1.0, ""4"": 1.0}"
F0+F2a,validation,ALL,5,64,0.9363636363636364,0.9375,0.12261811971506499,0.07976929700195225,0.039372826723872274,"{""15"": 0.9090909090909091, ""16"": 1.0, ""17"": 0.9696969696969697, ""4"": 0.8666666666666667}"
F0+F2a,validation,1,5,8,1.0,1.0,0.0071681319970104945,0.0003140360984581483,0.007086176105992603,"{""15"": 1.0, ""16"": 1.0, ""17"": 1.0, ""4"": 1.0}"
F0+F2a,validation,2,5,8,0.8666666666666667,0.875,0.29434114834229896,0.20309347720093116,0.10799425712924027,"{""15"": 0.8, ""16"": 1.0, ""17"": 1.0, ""4"": 0.6666666666666666}"
F0+F2a,validation,3,5,8,1.0,1.0,0.002347781125799503,2.4251756746917255e-05,0.0023409838201976507,"{""15"": 1.0, ""16"": 1.0, ""17"": 1.0, ""4"": 1.0}"
F0+F2a,validation,4,5,8,1.0,1.0,0.012385884977312956,0.0010954528391222212,0.012074752363859464,"{""15"": 1.0, ""16"": 1.0, ""17"": 1.0, ""4"": 1.0}"
F0+F2a,validation,5,5,8,0.8666666666666667,0.875,0.22441879679725635,0.15518623329159398,0.11945994190925208,"{""15"": 0.6666666666666666, ""16"": 1.0, ""17"": 1.0, ""4"": 0.8}"
F0+F2a,validation,6,5,8,0.65,0.75,0.3581129115651078,0.25701265973450965,0.1723236536470519,"{""15"": 0.8, ""16"": 1.0, ""17"": 0.8, ""4"": 0.0}"
F0+F2a,validation,7,5,8,1.0,1.0,0.009328883930196114,0.0008136487620561903,0.009103756047059597,"{""15"": 1.0, ""16"": 1.0, ""17"": 1.0, ""4"": 1.0}"
F0+F2a,validation,8,5,8,1.0,1.0,0.07284141898553781,0.020614616332199784,0.06674831948944575,"{""15"": 1.0, ""16"": 1.0, ""17"": 1.0, ""4"": 1.0}"
F0+F2a,final,ALL,0,64,0.8567226890756303,0.859375,0.6185614533311988,0.2021225284294473,0.06910797353845669,"{""15"": 0.8333333333333334, ""16"": 0.8666666666666667, ""17"": 0.9411764705882353, ""4"": 0.7857142857142857}"
F0+F2a,final,1,0,8,1.0,1.0,0.2176513026618016,0.11535248391482288,0.1631547466152713,"{""15"": 1.0, ""16"": 1.0, ""17"": 1.0, ""4"": 1.0}"
F0+F2a,final,2,0,8,0.6666666666666666,0.75,2.904517171447269,0.42098401415113956,0.20119324280728315,"{""15"": 0.6666666666666666, ""16"": 1.0, ""17"": 1.0, ""4"": 0.0}"
F0+F2a,final,3,0,8,1.0,1.0,0.056051183498767004,0.010335617663589898,0.05287017854172005,"{""15"": 1.0, ""16"": 1.0, ""17"": 1.0, ""4"": 1.0}"
F0+F2a,final,4,0,8,0.65,0.75,0.7040122706617028,0.38115225142395265,0.15177244836592263,"{""15"": 0.8, ""16"": 1.0, ""17"": 0.8, ""4"": 0.0}"
F0+F2a,final,5,0,8,0.8666666666666667,0.875,0.32004888478648974,0.19864467591024293,0.055996141006708425,"{""15"": 1.0, ""16"": 0.8, ""17"": 1.0, ""4"": 0.6666666666666666}"
F0+F2a,final,6,0,8,0.8666666666666667,0.875,0.20495943792895094,0.11978900463936287,0.03569513489851707,"{""15"": 1.0, ""16"": 0.6666666666666666, ""17"": 0.8, ""4"": 1.0}"
F0+F2a,final,7,0,8,1.0,1.0,0.08026086401728753,0.030277741187825162,0.06737924794349714,"{""15"": 1.0, ""16"": 1.0, ""17"": 1.0, ""4"": 1.0}"
F0+F2a,final,8,0,8,0.55,0.625,0.4609905116473211,0.34044443854464224,0.2136994841561347,"{""15"": 0.4, ""16"": 0.0, ""17"": 1.0, ""4"": 0.8}"
F0+F2a,final,ALL,1,64,0.8718807042336454,0.875,0.311453294210929,0.17862909674897665,0.05149658960192996,"{""15"": 0.8648648648648649, ""16"": 0.8666666666666667, ""17"": 0.9411764705882353, ""4"": 0.8148148148148148}"
F0+F2a,final,1,1,8,1.0,1.0,0.10852195751950464,0.04056171890160466,0.09254702470536033,"{""15"": 1.0, ""16"": 1.0, ""17"": 1.0, ""4"": 1.0}"
F0+F2a,final,2,1,8,0.6666666666666666,0.75,0.4056109891229594,0.2704616922914156,0.22192305952278385,"{""15"": 0.6666666666666666, ""16"": 1.0, ""17"": 1.0, ""4"": 0.0}"
F0+F2a,final,3,1,8,1.0,1.0,0.075921905009512,0.021753691102835673,0.06932967545644222,"{""15"": 1.0, ""16"": 1.0, ""17"": 1.0, ""4"": 1.0}"
F0+F2a,final,4,1,8,0.65,0.75,0.8233490480807936,0.41921108200477764,0.2000544117066283,"{""15"": 0.8, ""16"": 1.0, ""17"": 0.8, ""4"": 0.0}"
F0+F2a,final,5,1,8,1.0,1.0,0.23727693441060702,0.11006785066647538,0.18283256358320527,"{""15"": 1.0, ""16"": 1.0, ""17"": 1.0, ""4"": 1.0}"
F0+F2a,final,6,1,8,0.7416666666666667,0.75,0.34210058235840446,0.23937803925627402,0.1267156904339698,"{""15"": 1.0, ""16"": 0.5, ""17"": 0.8, ""4"": 0.6666666666666666}"
F0+F2a,final,7,1,8,1.0,1.0,0.03649596223933354,0.007593270887553347,0.03372927618043475,"{""15"": 1.0, ""16"": 1.0, ""17"": 1.0, ""4"": 1.0}"
F0+F2a,final,8,1,8,0.6666666666666666,0.75,0.4623489749463177,0.3200054288808768,0.14086764316610553,"{""15"": 0.6666666666666666, ""16"": 0.0, ""17"": 1.0, ""4"": 1.0}"
F0+F2a,final,ALL,2,64,0.9051353874883288,0.90625,0.25637271024365577,0.1418055264545447,0.04707323756649281,"{""15"": 0.8888888888888888, ""16"": 0.9333333333333333, ""17"": 0.9411764705882353, ""4"": 0.8571428571428571}"
F0+F2a,final,1,2,8,1.0,1.0,0.11531435990453676,0.04600864743511327,0.09670176386479806,"{""15"": 1.0, ""16"": 1.0, ""17"": 1.0, ""4"": 1.0}"
F0+F2a,final,2,2,8,0.6666666666666666,0.75,0.40327675910477184,0.26877195141851185,0.2212790410149695,"{""15"": 0.6666666666666666, ""16"": 1.0, ""17"": 1.0, ""4"": 0.0}"
F0+F2a,final,3,2,8,1.0,1.0,0.04831628894979895,0.007613658205710063,0.04609206875043674,"{""15"": 1.0, ""16"": 1.0, ""17"": 1.0, ""4"": 1.0}"
F0+F2a,final,4,2,8,0.65,0.75,0.7376305159144787,0.40678363147662533,0.19710506801792066,"{""15"": 0.8, ""16"": 1.0, ""17"": 0.8, ""4"": 0.0}"
F0+F2a,final,5,2,8,1.0,1.0,0.24883646937741094,0.11632445843125919,0.19982828953350276,"{""15"": 1.0, ""16"": 1.0, ""17"": 1.0, ""4"": 1.0}"
F0+F2a,final,6,2,8,0.8666666666666667,0.875,0.1941637287608054,0.12487126906690987,0.040678304755355665,"{""15"": 1.0, ""16"": 0.6666666666666666, ""17"": 0.8, ""4"": 1.0}"
F0+F2a,final,7,2,8,1.0,1.0,0.03654447459379339,0.00761742525804343,0.03376865599415835,"{""15"": 1.0, ""16"": 1.0, ""17"": 1.0, ""4"": 1.0}"
F0+F2a,final,8,2,8,0.8666666666666667,0.875,0.2668990853436503,0.15645317034418435,0.053086584013182336,"{""15"": 0.8, ""16"": 0.6666666666666666, ""17"": 1.0, ""4"": 1.0}"
F0+F2a,final,ALL,5,64,0.9062595062595062,0.90625,0.2414277543759109,0.14085969087123462,0.03476084204385298,"{""15"": 0.8648648648648649, ""16"": 0.9333333333333333, ""17"": 0.9696969696969697, ""4"": 0.8571428571428571}"
F0+F2a,final,1,5,8,1.0,1.0,0.1011757533428611,0.03496763048880767,0.0878264180990642,"{""15"": 1.0, ""16"": 1.0, ""17"": 1.0, ""4"": 1.0}"
F0+F2a,final,2,5,8,0.6666666666666666,0.75,0.3260705448243515,0.21171617796674447,0.18423923343404608,"{""15"": 0.6666666666666666, ""16"": 1.0, ""17"": 1.0, ""4"": 0.0}"
F0+F2a,final,3,5,8,1.0,1.0,0.02723989721837004,0.0025891282096124966,0.026481480550816006,"{""15"": 1.0, ""16"": 1.0, ""17"": 1.0, ""4"": 1.0}"
F0+F2a,final,4,5,8,0.65,0.75,0.6498307034472561,0.384805994849028,0.18798086556650348,"{""15"": 0.8, ""16"": 1.0, ""17"": 0.8, ""4"": 0.0}"
F0+F2a,final,5,5,8,1.0,1.0,0.1669576776994103,0.07176064498179138,0.13494953555751385,"{""15"": 1.0, ""16"": 1.0, ""17"": 1.0, ""4"": 1.0}"
F0+F2a,final,6,5,8,1.0,1.0,0.12622230343539184,0.06227477362028706,0.10249214846183773,"{""15"": 1.0, ""16"": 1.0, ""17"": 1.0, ""4"": 1.0}"
F0+F2a,final,7,5,8,1.0,1.0,0.036499457569394156,0.007595080255419991,0.033732114720251616,"{""15"": 1.0, ""16"": 1.0, ""17"": 1.0, ""4"": 1.0}"
F0+F2a,final,8,5,8,0.6666666666666666,0.75,0.4974256974702519,0.35116809659818593,0.15215721508718147,"{""15"": 0.6666666666666666, ""16"": 0.0, ""17"": 1.0, ""4"": 1.0}"
F0+F3c,validation,ALL,0,64,0.9222011385199241,0.921875,0.1779960031247815,0.10750072171593292,0.0344129759074782,"{""15"": 0.8823529411764706, ""16"": 0.9032258064516129, ""17"": 1.0, ""4"": 0.9032258064516129}"
F0+F3c,validation,1,0,8,1.0,1.0,0.04148410664394552,0.0056952448214366265,0.03987159871068896,"{""15"": 1.0, ""16"": 1.0, ""17"": 1.0, ""4"": 1.0}"
F0+F3c,validation,2,0,8,0.8666666666666667,0.875,0.3619817513979507,0.22438741515592667,0.1364068586724288,"{""15"": 0.8, ""16"": 1.0, ""17"": 1.0, ""4"": 0.6666666666666666}"
F0+F3c,validation,3,0,8,1.0,1.0,0.03604540304441757,0.007051274229085451,0.03372428482155268,"{""15"": 1.0, ""16"": 1.0, ""17"": 1.0, ""4"": 1.0}"
F0+F3c,validation,4,0,8,0.8666666666666667,0.875,0.21565145534617497,0.1396220645594941,0.14338796592341663,"{""15"": 1.0, ""16"": 0.8, ""17"": 1.0, ""4"": 0.6666666666666666}"
F0+F3c,validation,5,0,8,0.8666666666666667,0.875,0.20736492074395016,0.1292087127781319,0.12074774711975815,"{""15"": 0.6666666666666666, ""16"": 1.0, ""17"": 1.0, ""4"": 0.8}"
F0+F3c,validation,6,0,8,1.0,1.0,0.04377956731621671,0.009169095207406055,0.04053846056932328,"{""15"": 1.0, ""16"": 1.0, ""17"": 1.0, ""4"": 1.0}"
F0+F3c,validation,7,0,8,1.0,1.0,0.07563846636790948,0.03133331841759131,0.0637005106555911,"{""15"": 1.0, ""16"": 1.0, ""17"": 1.0, ""4"": 1.0}"
F0+F3c,validation,8,0,8,0.6666666666666666,0.75,0.44202235413768687,0.3135386485583912,0.1290188473443626,"{""15"": 0.6666666666666666, ""16"": 0.0, ""17"": 1.0, ""4"": 1.0}"
F0+F3c,validation,ALL,1,64,0.9374541788856305,0.9375,0.19086746862303666,0.11055367931664968,0.03719959567698818,"{""15"": 0.9090909090909091, ""16"": 0.9375, ""17"": 1.0, ""4"": 0.9032258064516129}"
F0+F3c,validation,1,1,8,1.0,1.0,0.038582420493382716,0.005907338872582213,0.036950109605708256,"{""15"": 1.0, ""16"": 1.0, ""17"": 1.0, ""4"": 1.0}"
F0+F3c,validation,2,1,8,0.8666666666666667,0.875,0.4343648104566121,0.23490167910808396,0.1084783525699835,"{""15"": 0.8, ""16"": 1.0, ""17"": 1.0, ""4"": 0.6666666666666666}"
F0+F3c,validation,3,1,8,1.0,1.0,0.01741235735199795,0.0017628307725779304,0.016862196785283112,"{""15"": 1.0, ""16"": 1.0, ""17"": 1.0, ""4"": 1.0}"
F0+F3c,validation,4,1,8,0.8666666666666667,0.875,0.4026347902642145,0.25524107453238454,0.1867706770167898,"{""15"": 1.0, ""16"": 0.8, ""17"": 1.0, ""4"": 0.6666666666666666}"
F0+F3c,validation,5,1,8,0.8666666666666667,0.875,0.27087958836363146,0.1805967035302669,0.12267281782403833,"{""15"": 0.6666666666666666, ""16"": 1.0, ""17"": 1.0, ""4"": 0.8}"
F0+F3c,validation,6,1,8,1.0,1.0,0.021506006967903026,0.0022993649667457194,0.020736738319365844,"{""15"": 1.0, ""16"": 1.0, ""17"": 1.0, ""4"": 1.0}"
F0+F3c,validation,7,1,8,1.0,1.0,0.03444883691147642,0.007850972024770581,0.031876606815347805,"{""15"": 1.0, ""16"": 1.0, ""17"": 1.0, ""4"": 1.0}"
F0+F3c,validation,8,1,8,0.8666666666666667,0.875,0.30711093817507507,0.19586947072578548,0.1405827549101224,"{""15"": 0.8, ""16"": 0.6666666666666666, ""17"": 1.0, ""4"": 1.0}"
F0+F3c,validation,ALL,2,64,0.9374541788856305,0.9375,0.17168720670127038,0.1054620708831145,0.04597476823999143,"{""15"": 0.9090909090909091, ""16"": 0.9375, ""17"": 1.0, ""4"": 0.9032258064516129}"
F0+F3c,validation,1,2,8,1.0,1.0,0.020525735389626078,0.0014491655194404708,0.020127871215146254,"{""15"": 1.0, ""16"": 1.0, ""17"": 1.0, ""4"": 1.0}"
F0+F3c,validation,2,2,8,0.8666666666666667,0.875,0.37358538868122004,0.22434474729597392,0.10412229747496005,"{""15"": 0.8, ""16"": 1.0, ""17"": 1.0, ""4"": 0.6666666666666666}"
F0+F3c,validation,3,2,8,1.0,1.0,0.017412390068922808,0.0017628331604409406,0.016862228530596823,"{""15"": 1.0, ""16"": 1.0, ""17"": 1.0, ""4"": 1.0}"
F0+F3c,validation,4,2,8,0.8666666666666667,0.875,0.26740836620350855,0.1831733562373857,0.09785051334077416,"{""15"": 1.0, ""16"": 0.8, ""17"": 1.0, ""4"": 0.6666666666666666}"
F0+F3c,validation,5,2,8,0.8666666666666667,0.875,0.2720160186682675,0.18111260597414097,0.12282568785591677,"{""15"": 0.6666666666666666, ""16"": 1.0, ""17"": 1.0, ""4"": 0.8}"
F0+F3c,validation,6,2,8,1.0,1.0,0.02106702075618404,0.002292502169652442,0.02030060499647557,"{""15"": 1.0, ""16"": 1.0, ""17"": 1.0, ""4"": 1.0}"
F0+F3c,validation,7,2,8,1.0,1.0,0.034455466520527514,0.007854633124376169,0.0318820143352095,"{""15"": 1.0, ""16"": 1.0, ""17"": 1.0, ""4"": 1.0}"
F0+F3c,validation,8,2,8,0.8666666666666667,0.875,0.3670272673219067,0.2417067235835053,0.20781839713792327,"{""15"": 0.8, ""16"": 0.6666666666666666, ""17"": 1.0, ""4"": 1.0}"
F0+F3c,validation,ALL,5,64,0.9374541788856305,0.9375,0.17172200060792536,0.10524911879235054,0.03881009685033247,"{""15"": 0.9090909090909091, ""16"": 0.9375, ""17"": 1.0, ""4"": 0.9032258064516129}"
F0+F3c,validation,1,5,8,1.0,1.0,0.02034297012614613,0.001425870249396796,0.019951301413201783,"{""15"": 1.0, ""16"": 1.0, ""17"": 1.0, ""4"": 1.0}"
F0+F3c,validation,2,5,8,0.8666666666666667,0.875,0.38624503517658487,0.22699658103993128,0.1052965279437933,"{""15"": 0.8, ""16"": 1.0, ""17"": 1.0, ""4"": 0.6666666666666666}"
F0+F3c,validation,3,5,8,1.0,1.0,0.017412364009458753,0.0017628315132330616,0.0168622031631096,"{""15"": 1.0, ""16"": 1.0, ""17"": 1.0, ""4"": 1.0}"
F0+F3c,validation,4,5,8,0.8666666666666667,0.875,0.2673254788611511,0.18375834774671643,0.09789435228687085,"{""15"": 1.0, ""16"": 0.8, ""17"": 1.0, ""4"": 0.6666666666666666}"
F0+F3c,validation,5,5,8,0.8666666666666667,0.875,0.2721647263285461,0.18115933010176585,0.1228344202225314,"{""15"": 0.6666666666666666, ""16"": 1.0, ""17"": 1.0, ""4"": 0.8}"
F0+F3c,validation,6,5,8,1.0,1.0,0.021048562080035547,0.0022923142512796552,0.02028222953350678,"{""15"": 1.0, ""16"": 1.0, ""17"": 1.0, ""4"": 1.0}"
F0+F3c,validation,7,5,8,1.0,1.0,0.03444848119779521,0.007841804687042072,0.03187933482516185,"{""15"": 1.0, ""16"": 1.0, ""17"": 1.0, ""4"": 1.0}"
F0+F3c,validation,8,5,8,0.8666666666666667,0.875,0.354788387083685,0.2367558707494392,0.1517807761536698,"{""15"": 0.8, ""16"": 0.6666666666666666, ""17"": 1.0, ""4"": 1.0}"
F0+F3c,final,ALL,0,64,0.8892156862745098,0.890625,0.2905961591211972,0.16587562047396429,0.0814565095087684,"{""15"": 0.8823529411764706, ""16"": 0.8666666666666667, ""17"": 0.9411764705882353, ""4"": 0.8666666666666667}"
F0+F3c,final,1,0,8,0.8666666666666667,0.875,0.1614337428161207,0.08915641942379512,0.11610398288846827,"{""15"": 0.6666666666666666, ""16"": 1.0, ""17"": 1.0, ""4"": 0.8}"
F0+F3c,final,2,0,8,0.8666666666666667,0.875,0.46741790648431525,0.2560451300005596,0.17600459629801976,"{""15"": 0.8, ""16"": 1.0, ""17"": 1.0, ""4"": 0.6666666666666666}"
F0+F3c,final,3,0,8,1.0,1.0,0.06527767475536665,0.013324030044801732,0.060998645714480215,"{""15"": 1.0, ""16"": 1.0, ""17"": 1.0, ""4"": 1.0}"
F0+F3c,final,4,0,8,0.8666666666666667,0.875,0.35483334560684726,0.20837511242586562,0.17385886081995117,"{""15"": 1.0, ""16"": 0.8, ""17"": 1.0, ""4"": 0.6666666666666666}"
F0+F3c,final,5,0,8,0.8666666666666667,0.875,0.4838814688798648,0.2674241191048475,0.17648777163808566,"{""15"": 1.0, ""16"": 1.0, ""17"": 0.8, ""4"": 0.6666666666666666}"
F0+F3c,final,6,0,8,0.8666666666666667,0.875,0.15314966104452563,0.09791890125306736,0.10447420668953974,"{""15"": 1.0, ""16"": 0.6666666666666666, ""17"": 0.8, ""4"": 1.0}"
F0+F3c,final,7,0,8,1.0,1.0,0.0634849875960571,0.014251596751767475,0.05851683718677293,"{""15"": 1.0, ""16"": 1.0, ""17"": 1.0, ""4"": 1.0}"
F0+F3c,final,8,0,8,0.6666666666666666,0.75,0.5752904857864799,0.3805096547870099,0.2069943695278308,"{""15"": 0.6666666666666666, ""16"": 0.0, ""17"": 1.0, ""4"": 1.0}"
F0+F3c,final,ALL,1,64,0.905039963199356,0.90625,0.20333285014952301,0.12033384145201342,0.08129427564335245,"{""15"": 0.9090909090909091, ""16"": 0.9032258064516129, ""17"": 0.9411764705882353, ""4"": 0.8666666666666667}"
F0+F3c,final,1,1,8,0.8666666666666667,0.875,0.2024561935251423,0.14146065363687738,0.1166755079045149,"{""15"": 0.6666666666666666, ""16"": 1.0, ""17"": 1.0, ""4"": 0.8}"
F0+F3c,final,2,1,8,0.8666666666666667,0.875,0.2757086549895718,0.16170145267821717,0.0741179018113429,"{""15"": 0.8, ""16"": 1.0, ""17"": 1.0, ""4"": 0.6666666666666666}"
F0+F3c,final,3,1,8,1.0,1.0,0.03150860167829268,0.003331120596017678,0.030499711683316888,"{""15"": 1.0, ""16"": 1.0, ""17"": 1.0, ""4"": 1.0}"
F0+F3c,final,4,1,8,0.8666666666666667,0.875,0.2020928841847798,0.12113667912467453,0.1281681057127595,"{""15"": 1.0, ""16"": 0.8, ""17"": 1.0, ""4"": 0.6666666666666666}"
F0+F3c,final,5,1,8,0.8666666666666667,0.875,0.4523842724566461,0.2508617317805062,0.09970150030640301,"{""15"": 1.0, ""16"": 1.0, ""17"": 0.8, ""4"": 0.6666666666666666}"
F0+F3c,final,6,1,8,0.8666666666666667,0.875,0.20742460510560287,0.15236922406308492,0.11218360854854452,"{""15"": 1.0, ""16"": 0.6666666666666666, ""17"": 0.8, ""4"": 1.0}"
F0+F3c,final,7,1,8,1.0,1.0,0.030425276959820002,0.0035633344060830535,0.029260000362040947,"{""15"": 1.0, ""16"": 1.0, ""17"": 1.0, ""4"": 1.0}"
F0+F3c,final,8,1,8,0.8666666666666667,0.875,0.22466231229632896,0.12824653533064656,0.17447413778333415,"{""15"": 0.8, ""16"": 0.6666666666666666, ""17"": 1.0, ""4"": 1.0}"
F0+F3c,final,ALL,2,64,0.905039963199356,0.90625,0.21403776593511017,0.12645002107423392,0.07710868120062223,"{""15"": 0.9090909090909091, ""16"": 0.9032258064516129, ""17"": 0.9411764705882353, ""4"": 0.8666666666666667}"
F0+F3c,final,1,2,8,0.8666666666666667,0.875,0.1983444346839526,0.13843949964740934,0.1156544054256695,"{""15"": 0.6666666666666666, ""16"": 1.0, ""17"": 1.0, ""4"": 0.8}"
F0+F3c,final,2,2,8,0.8666666666666667,0.875,0.2840883459044181,0.16818250039310645,0.07358684837003374,"{""15"": 0.8, ""16"": 1.0, ""17"": 1.0, ""4"": 0.6666666666666666}"
F0+F3c,final,3,2,8,1.0,1.0,0.031629484679847795,0.0033467470665689975,0.030612885082774488,"{""15"": 1.0, ""16"": 1.0, ""17"": 1.0, ""4"": 1.0}"
F0+F3c,final,4,2,8,0.8666666666666667,0.875,0.2479084083964359,0.1570664792306723,0.06620429071440087,"{""15"": 1.0, ""16"": 0.8, ""17"": 1.0, ""4"": 0.6666666666666666}"
F0+F3c,final,5,2,8,0.8666666666666667,0.875,0.4636298254871133,0.25180089199532435,0.10865820959740426,"{""15"": 1.0, ""16"": 1.0, ""17"": 0.8, ""4"": 0.6666666666666666}"
F0+F3c,final,6,2,8,0.8666666666666667,0.875,0.20519467736441416,0.15151294008291916,0.11082761485705049,"{""15"": 1.0, ""16"": 0.6666666666666666, ""17"": 0.8, ""4"": 1.0}"
F0+F3c,final,7,2,8,1.0,1.0,0.03042435185824216,0.0035631042346785627,0.02925915811229056,"{""15"": 1.0, ""16"": 1.0, ""17"": 1.0, ""4"": 1.0}"
F0+F3c,final,8,2,8,0.8666666666666667,0.875,0.2510825991064573,0.13768800594319222,0.19873205937938765,"{""15"": 0.8, ""16"": 0.6666666666666666, ""17"": 1.0, ""4"": 1.0}"
F0+F3c,final,ALL,5,64,0.8892156862745098,0.890625,0.2273843081794309,0.13831900613679532,0.04062415631425704,"{""15"": 0.8823529411764706, ""16"": 0.8666666666666667, ""17"": 0.9411764705882353, ""4"": 0.8666666666666667}"
F0+F3c,final,1,5,8,0.8666666666666667,0.875,0.1778685169776758,0.12241880744809522,0.11003744119688953,"{""15"": 0.6666666666666666, ""16"": 1.0, ""17"": 1.0, ""4"": 0.8}"
F0+F3c,final,2,5,8,0.8666666666666667,0.875,0.21843624951746252,0.12590276218813337,0.1448621698994395,"{""15"": 0.8, ""16"": 1.0, ""17"": 1.0, ""4"": 0.6666666666666666}"
F0+F3c,final,3,5,8,1.0,1.0,0.03151061404998885,0.0033315472057554793,0.030501561720591264,"{""15"": 1.0, ""16"": 1.0, ""17"": 1.0, ""4"": 1.0}"
F0+F3c,final,4,5,8,0.8666666666666667,0.875,0.19312591032514012,0.11581672225313663,0.12133702278334824,"{""15"": 1.0, ""16"": 0.8, ""17"": 1.0, ""4"": 0.6666666666666666}"
F0+F3c,final,5,5,8,0.8666666666666667,0.875,0.341096317542739,0.20707806807310197,0.15624830762894315,"{""15"": 1.0, ""16"": 1.0, ""17"": 0.8, ""4"": 0.6666666666666666}"
F0+F3c,final,6,5,8,0.8666666666666667,0.875,0.20941678990340068,0.15431239640235456,0.11171160855077437,"{""15"": 1.0, ""16"": 0.6666666666666666, ""17"": 0.8, ""4"": 1.0}"
F0+F3c,final,7,5,8,1.0,1.0,0.03042398889446624,0.003563011976765617,0.029258828090495653,"{""15"": 1.0, ""16"": 1.0, ""17"": 1.0, ""4"": 1.0}"
F0+F3c,final,8,5,8,0.6666666666666666,0.75,0.617196078224574,0.3741287335470196,0.24317432079725304,"{""15"": 0.6666666666666666, ""16"": 0.0, ""17"": 1.0, ""4"": 1.0}"
F0+F2a+F3c,validation,ALL,0,64,0.9363636363636364,0.9375,0.1370733248825043,0.07807872009839757,0.04810104750792131,"{""15"": 0.9090909090909091, ""16"": 1.0, ""17"": 0.9696969696969697, ""4"": 0.8666666666666667}"
F0+F2a+F3c,validation,1,0,8,1.0,1.0,0.00967762847148817,0.00038452956270344655,0.009576224178187931,"{""15"": 1.0, ""16"": 1.0, ""17"": 1.0, ""4"": 1.0}"
F0+F2a+F3c,validation,2,0,8,0.8666666666666667,0.875,0.32782751427756684,0.2127159790934066,0.103881872683796,"{""15"": 0.8, ""16"": 1.0, ""17"": 1.0, ""4"": 0.6666666666666666}"
F0+F2a+F3c,validation,3,0,8,1.0,1.0,0.0066064004432709374,0.00023672657983033298,0.006541299702161885,"{""15"": 1.0, ""16"": 1.0, ""17"": 1.0, ""4"": 1.0}"
F0+F2a+F3c,validation,4,0,8,1.0,1.0,0.059387670505304156,0.020944875972093067,0.05286914137617066,"{""15"": 1.0, ""16"": 1.0, ""17"": 1.0, ""4"": 1.0}"
F0+F2a+F3c,validation,5,0,8,0.8666666666666667,0.875,0.14623611223386565,0.09467720292417683,0.09295998565396343,"{""15"": 0.6666666666666666, ""16"": 1.0, ""17"": 1.0, ""4"": 0.8}"
F0+F2a+F3c,validation,6,0,8,0.65,0.75,0.3669592297004097,0.21846693286325403,0.11324102687661279,"{""15"": 0.8, ""16"": 1.0, ""17"": 0.8, ""4"": 0.0}"
F0+F2a+F3c,validation,7,0,8,1.0,1.0,0.022913987978852926,0.003905402262338649,0.021792367225301826,"{""15"": 1.0, ""16"": 1.0, ""17"": 1.0, ""4"": 1.0}"
F0+F2a+F3c,validation,8,0,8,1.0,1.0,0.15697805544927582,0.07329811152937753,0.1327540412723537,"{""15"": 1.0, ""16"": 1.0, ""17"": 1.0, ""4"": 1.0}"
F0+F2a+F3c,validation,ALL,1,64,0.9526056940371457,0.953125,0.15073332666047812,0.08474002330687139,0.04437063562535784,"{""15"": 0.9032258064516129, ""16"": 0.9696969696969697, ""17"": 1.0, ""4"": 0.9375}"
F0+F2a+F3c,validation,1,1,8,1.0,1.0,0.04179101161557479,0.009802256285700766,0.0390714287603319,"{""15"": 1.0, ""16"": 1.0, ""17"": 1.0, ""4"": 1.0}"
F0+F2a+F3c,validation,2,1,8,0.8666666666666667,0.875,0.40852754265805863,0.23061979325186208,0.11443155908752511,"{""15"": 0.8, ""16"": 1.0, ""17"": 1.0, ""4"": 0.6666666666666666}"
F0+F2a+F3c,validation,3,1,8,1.0,1.0,0.0032867990779090217,5.918169783610908e-05,0.003270653892274211,"{""15"": 1.0, ""16"": 1.0, ""17"": 1.0, ""4"": 1.0}"
F0+F2a+F3c,validation,4,1,8,0.8666666666666667,0.875,0.29706131043997425,0.18009710284279776,0.09085214989069497,"{""15"": 0.6666666666666666, ""16"": 0.8, ""17"": 1.0, ""4"": 1.0}"
F0+F2a+F3c,validation,5,1,8,0.8666666666666667,0.875,0.18858659228189176,0.14004172444152935,0.10191509081916549,"{""15"": 0.6666666666666666, ""16"": 1.0, ""17"": 1.0, ""4"": 0.8}"
F0+F2a+F3c,validation,6,1,8,1.0,1.0,0.18316469689952444,0.09772046883745898,0.13294946273774827,"{""15"": 1.0, ""16"": 1.0, ""17"": 1.0, ""4"": 1.0}"
F0+F2a+F3c,validation,7,1,8,1.0,1.0,0.011165211107293358,0.0009763548265216898,0.010896208957566378,"{""15"": 1.0, ""16"": 1.0, ""17"": 1.0, ""4"": 1.0}"
F0+F2a+F3c,validation,8,1,8,1.0,1.0,0.07228344920359844,0.01860330427126428,0.06692889716658199,"{""15"": 1.0, ""16"": 1.0, ""17"": 1.0, ""4"": 1.0}"
F0+F2a+F3c,validation,ALL,2,64,0.96875,0.96875,0.10637974712193983,0.05954190340936422,0.04005638746638747,"{""15"": 0.9375, ""16"": 1.0, ""17"": 1.0, ""4"": 0.9375}"
F0+F2a+F3c,validation,1,2,8,1.0,1.0,0.004965741331020724,9.799745894961361e-05,0.004940084764461616,"{""15"": 1.0, ""16"": 1.0, ""17"": 1.0, ""4"": 1.0}"
F0+F2a+F3c,validation,2,2,8,0.8666666666666667,0.875,0.36793349451366353,0.22318455210359575,0.11167460368573068,"{""15"": 0.8, ""16"": 1.0, ""17"": 1.0, ""4"": 0.6666666666666666}"
F0+F2a+F3c,validation,3,2,8,1.0,1.0,0.0032869470640084666,5.9181865334476e-05,0.0032708017993101635,"{""15"": 1.0, ""16"": 1.0, ""17"": 1.0, ""4"": 1.0}"
F0+F2a+F3c,validation,4,2,8,1.0,1.0,0.034244036696216285,0.007044223628562326,0.0318410395445273,"{""15"": 1.0, ""16"": 1.0, ""17"": 1.0, ""4"": 1.0}"
F0+F2a+F3c,validation,5,2,8,0.8666666666666667,0.875,0.21874021409279104,0.15995664303155668,0.10832687678728735,"{""15"": 0.6666666666666666, ""16"": 1.0, ""17"": 1.0, ""4"": 0.8}"
F0+F2a+F3c,validation,6,2,8,1.0,1.0,0.13789432541703764,0.06601870540281185,0.106632337465738,"{""15"": 1.0, ""16"": 1.0, ""17"": 1.0, ""4"": 1.0}"
F0+F2a+F3c,validation,7,2,8,1.0,1.0,0.011165211452661942,0.0009763544759986031,0.010896209399382184,"{""15"": 1.0, ""16"": 1.0, ""17"": 1.0, ""4"": 1.0}"
F0+F2a+F3c,validation,8,2,8,1.0,1.0,0.0728080064081189,0.01899756930810456,0.0673557655086636,"{""15"": 1.0, ""16"": 1.0, ""17"": 1.0, ""4"": 1.0}"
F0+F2a+F3c,validation,ALL,5,64,0.96875,0.96875,0.09479531234417994,0.05574674112832789,0.040304751362653775,"{""15"": 0.9375, ""16"": 1.0, ""17"": 1.0, ""4"": 0.9375}"
F0+F2a+F3c,validation,1,5,8,1.0,1.0,0.004814845494829095,9.615126031206882e-05,0.004789710660415336,"{""15"": 1.0, ""16"": 1.0, ""17"": 1.0, ""4"": 1.0}"
F0+F2a+F3c,validation,2,5,8,0.8666666666666667,0.875,0.28558608901162225,0.19776224534860146,0.12219721921861201,"{""15"": 0.8, ""16"": 1.0, ""17"": 1.0, ""4"": 0.6666666666666666}"
F0+F2a+F3c,validation,3,5,8,1.0,1.0,0.003286806181037695,5.91817346130204e-05,0.00327066097803852,"{""15"": 1.0, ""16"": 1.0, ""17"": 1.0, ""4"": 1.0}"
F0+F2a+F3c,validation,4,5,8,1.0,1.0,0.02800929252385946,0.005266831462046214,0.026520782544716168,"{""15"": 1.0, ""16"": 1.0, ""17"": 1.0, ""4"": 1.0}"
F0+F2a+F3c,validation,5,5,8,0.8666666666666667,0.875,0.21910050885642535,0.16017450229509198,0.10839256882008903,"{""15"": 0.6666666666666666, ""16"": 1.0, ""17"": 1.0, ""4"": 0.8}"
F0+F2a+F3c,validation,6,5,8,1.0,1.0,0.1345490166280341,0.06317873274493546,0.10485255606737963,"{""15"": 1.0, ""16"": 1.0, ""17"": 1.0, ""4"": 1.0}"
F0+F2a+F3c,validation,7,5,8,1.0,1.0,0.011167179858935517,0.0009763760967223573,0.010898168980153056,"{""15"": 1.0, ""16"": 1.0, ""17"": 1.0, ""4"": 1.0}"
F0+F2a+F3c,validation,8,5,8,1.0,1.0,0.07184876019869607,0.018459908084300643,0.06657562903851016,"{""15"": 1.0, ""16"": 1.0, ""17"": 1.0, ""4"": 1.0}"
F0+F2a+F3c,final,ALL,0,64,0.8718885281385281,0.875,0.5705452093307862,0.1840679038916387,0.06577372571360905,"{""15"": 0.8571428571428571, ""16"": 0.875, ""17"": 0.9696969696969697, ""4"": 0.7857142857142857}"
F0+F2a+F3c,final,1,0,8,1.0,1.0,0.13671957316925207,0.059478355323265196,0.11208103059581705,"{""15"": 1.0, ""16"": 1.0, ""17"": 1.0, ""4"": 1.0}"
F0+F2a+F3c,final,2,0,8,0.6666666666666666,0.75,2.560770021283725,0.3931287865510276,0.17876319656836784,"{""15"": 0.6666666666666666, ""16"": 1.0, ""17"": 1.0, ""4"": 0.0}"
F0+F2a+F3c,final,3,0,8,1.0,1.0,0.04288594056372346,0.0049893273792786415,0.041165489261214536,"{""15"": 1.0, ""16"": 1.0, ""17"": 1.0, ""4"": 1.0}"
F0+F2a+F3c,final,4,0,8,0.65,0.75,0.7177883397367567,0.32724558536643156,0.20856274022741006,"{""15"": 1.0, ""16"": 0.8, ""17"": 0.8, ""4"": 0.0}"
F0+F2a+F3c,final,5,0,8,0.8666666666666667,0.875,0.29637617443850317,0.16986569861627637,0.20770053311797926,"{""15"": 1.0, ""16"": 0.8, ""17"": 1.0, ""4"": 0.6666666666666666}"
F0+F2a+F3c,final,6,0,8,1.0,1.0,0.13015738691222778,0.0556221690797224,0.10845258630269462,"{""15"": 1.0, ""16"": 1.0, ""17"": 1.0, ""4"": 1.0}"
F0+F2a+F3c,final,7,0,8,1.0,1.0,0.05742126114584072,0.01623877526561663,0.05113705658744902,"{""15"": 1.0, ""16"": 1.0, ""17"": 1.0, ""4"": 1.0}"
F0+F2a+F3c,final,8,0,8,0.55,0.625,0.6222429773962606,0.4459745335514912,0.31030152907507064,"{""15"": 0.4, ""16"": 0.0, ""17"": 1.0, ""4"": 0.8}"
F0+F2a+F3c,final,ALL,1,64,0.9047386305450822,0.90625,0.2486801606669773,0.1395519703417028,0.06478046494309803,"{""15"": 0.8888888888888888, ""16"": 0.9032258064516129, ""17"": 0.9696969696969697, ""4"": 0.8571428571428571}"
F0+F2a+F3c,final,1,1,8,1.0,1.0,0.06333225275242721,0.016166968174398305,0.057669858061786594,"{""15"": 1.0, ""16"": 1.0, ""17"": 1.0, ""4"": 1.0}"
F0+F2a+F3c,final,2,1,8,0.6666666666666666,0.75,0.40906976928336425,0.2610660139601626,0.21181271352276843,"{""15"": 0.6666666666666666, ""16"": 1.0, ""17"": 1.0, ""4"": 0.0}"
F0+F2a+F3c,final,3,1,8,1.0,1.0,0.023148124405264637,0.0016224942255921447,0.022608376230078164,"{""15"": 1.0, ""16"": 1.0, ""17"": 1.0, ""4"": 1.0}"
F0+F2a+F3c,final,4,1,8,0.65,0.75,0.5433398978449322,0.3366972913504744,0.2133915302793249,"{""15"": 1.0, ""16"": 0.8, ""17"": 0.8, ""4"": 0.0}"
F0+F2a+F3c,final,5,1,8,1.0,1.0,0.23352544264191244,0.09992625423148202,0.1830749968037514,"{""15"": 1.0, ""16"": 1.0, ""17"": 1.0, ""4"": 1.0}"
F0+F2a+F3c,final,6,1,8,1.0,1.0,0.06054300929484713,0.014669924595368141,0.05554739563413022,"{""15"": 1.0, ""16"": 1.0, ""17"": 1.0, ""4"": 1.0}"
F0+F2a+F3c,final,7,1,8,1.0,1.0,0.02699121550666121,0.0040602098382090555,0.025569779441826423,"{""15"": 1.0, ""16"": 1.0, ""17"": 1.0, ""4"": 1.0}"
F0+F2a+F3c,final,8,1,8,0.6666666666666666,0.75,0.6294915736064095,0.3822066063579356,0.21609962386561377,"{""15"": 0.6666666666666666, ""16"": 0.0, ""17"": 1.0, ""4"": 1.0}"
F0+F2a+F3c,final,ALL,2,64,0.9196563852813853,0.921875,0.20714800488431462,0.1136799331773718,0.06710551802533746,"{""15"": 0.9142857142857143, ""16"": 0.9375, ""17"": 0.9696969696969697, ""4"": 0.8571428571428571}"
F0+F2a+F3c,final,1,2,8,1.0,1.0,0.06343895938174256,0.016234684980802074,0.057752073141741314,"{""15"": 1.0, ""16"": 1.0, ""17"": 1.0, ""4"": 1.0}"
F0+F2a+F3c,final,2,2,8,0.6666666666666666,0.75,0.397907382339959,0.25319889202953294,0.20877791146389407,"{""15"": 0.6666666666666666, ""16"": 1.0, ""17"": 1.0, ""4"": 0.0}"
F0+F2a+F3c,final,3,2,8,1.0,1.0,0.021555172633832883,0.0013075229689328398,0.021118832964161616,"{""15"": 1.0, ""16"": 1.0, ""17"": 1.0, ""4"": 1.0}"
F0+F2a+F3c,final,4,2,8,0.65,0.75,0.5205128513532548,0.32672836424079865,0.20988217120103633,"{""15"": 1.0, ""16"": 0.8, ""17"": 0.8, ""4"": 0.0}"
F0+F2a+F3c,final,5,2,8,1.0,1.0,0.2549545808952336,0.11445979626512261,0.20298865075010086,"{""15"": 1.0, ""16"": 1.0, ""17"": 1.0, ""4"": 1.0}"
F0+F2a+F3c,final,6,2,8,1.0,1.0,0.05906701766149369,0.013974061668683386,0.0543439687596175,"{""15"": 1.0, ""16"": 1.0, ""17"": 1.0, ""4"": 1.0}"
F0+F2a+F3c,final,7,2,8,1.0,1.0,0.02699144483961805,0.004060295154388731,0.025569977992711795,"{""15"": 1.0, ""16"": 1.0, ""17"": 1.0, ""4"": 1.0}"
F0+F2a+F3c,final,8,2,8,0.8666666666666667,0.875,0.31275662996938236,0.1794758481107131,0.14807597644805176,"{""15"": 0.8, ""16"": 0.6666666666666666, ""17"": 1.0, ""4"": 1.0}"
F0+F2a+F3c,final,ALL,5,64,0.9047386305450822,0.90625,0.2030812644234547,0.11301400281577925,0.04399079475120192,"{""15"": 0.8888888888888888, ""16"": 0.9032258064516129, ""17"": 0.9696969696969697, ""4"": 0.8571428571428571}"
F0+F2a+F3c,final,1,5,8,1.0,1.0,0.06334762137993553,0.016175949534759513,0.05768214909775146,"{""15"": 1.0, ""16"": 1.0, ""17"": 1.0, ""4"": 1.0}"
F0+F2a+F3c,final,2,5,8,0.6666666666666666,0.75,0.27909166479582614,0.16388409515882246,0.15678898893843382,"{""15"": 0.6666666666666666, ""16"": 1.0, ""17"": 1.0, ""4"": 0.0}"
F0+F2a+F3c,final,3,5,8,1.0,1.0,0.021003116179466617,0.0012479798379033025,0.020587124342343,"{""15"": 1.0, ""16"": 1.0, ""17"": 1.0, ""4"": 1.0}"
F0+F2a+F3c,final,4,5,8,0.65,0.75,0.35116610395505427,0.2222526381915697,0.17421185762195954,"{""15"": 1.0, ""16"": 0.8, ""17"": 0.8, ""4"": 0.0}"
F0+F2a+F3c,final,5,5,8,1.0,1.0,0.1351248143764049,0.04863902969051042,0.11631909592673023,"{""15"": 1.0, ""16"": 1.0, ""17"": 1.0, ""4"": 1.0}"
F0+F2a+F3c,final,6,5,8,1.0,1.0,0.05904201287209135,0.013956179152076241,0.054324059156166615,"{""15"": 1.0, ""16"": 1.0, ""17"": 1.0, ""4"": 1.0}"
F0+F2a+F3c,final,7,5,8,1.0,1.0,0.02699118935643604,0.004060201615718444,0.025569757015967684,"{""15"": 1.0, ""16"": 1.0, ""17"": 1.0, ""4"": 1.0}"
F0+F2a+F3c,final,8,5,8,0.6666666666666666,0.75,0.6888835924724226,0.433895949344874,0.23280804306907182,"{""15"": 0.6666666666666666, ""16"": 0.0, ""17"": 1.0, ""4"": 1.0}"
